# H+ charge-exchange cross section with neutral metal.
# Digitized from Lin and Poppe (2025), JGR Space Physics, Fig. 2c.
# Original cited CX sources: Ebel and Salzborn (1987), Morgan et al. (1985), Rutherford and Vroom (1972).
energy(eV) cross_section(x1e-16)
      107.41       20.352
      108.96       20.352
      110.52       20.377
      112.12       20.452
      113.73       20.488
      115.37       20.557
      117.03       20.635
      118.71       20.713
      120.42       20.792
      122.16       20.873
      123.92       20.955
       125.7       21.016
      127.51       21.071
      129.35        21.24
      131.21       21.357
       133.1       21.445
      135.01       21.533
      136.96       21.623
      138.93       21.714
      140.93       21.751
      142.96       21.844
      145.02       22.048
       147.1       22.151
      149.22       22.248
      151.37       22.347
      153.55       22.447
      155.76       22.537
         158       22.589
      160.28       22.693
      162.59       22.816
      164.93       23.024
       167.3       23.153
      169.71       23.263
      172.15       23.375
      174.63        23.42
      177.15       23.534
       179.7       23.649
      182.28       23.876
      184.91       24.151
      187.57       24.151
      190.27       24.249
      193.01         24.3
      195.79       24.423
      198.61        24.55
      201.47       24.699
      204.37       24.952
      207.31       19.107
       210.3       19.208
      213.32       19.315
       216.4       19.442
      219.51        19.63
      222.67       19.679
      225.88       19.797
      229.13       19.928
      232.43       20.086
      235.78       20.257
      239.17        20.38
      242.61       20.506
      246.11       20.631
      249.65       20.823
      253.25       20.983
      256.89       21.131
      260.59       21.189
      264.34       21.323
      268.15       21.459
      272.01       21.693
      275.92       21.835
       279.9       21.978
      283.93       22.125
      288.02       22.292
      292.16       22.532
      296.37         22.6
      300.64       22.752
      304.96       22.907
      309.36       23.116
      313.81       23.228
      318.33       23.399
      322.91       23.566
      327.56       23.739
      332.28       24.066
      337.06       24.261
      341.91       24.338
      346.84       24.453
      351.83       24.571
       356.9       24.677
      362.03       24.956
      367.25       25.136
      372.53       25.226
       377.9       25.401
      383.34       25.708
      388.86       25.801
      394.46       25.984
      400.14       26.296
       405.9       26.582
      411.74       26.797
      417.67       27.108
      423.68       27.319
      429.78        27.65
      435.97       27.964
      442.25       28.199
      448.62       28.426
      455.07       28.782
      461.63       29.113
      468.27       29.348
      475.01       29.601
      481.85       29.948
      488.79       30.333
      495.83       30.544
      502.97       30.568
      510.21       30.746
      517.56       30.857
      525.01       30.962
      532.57       31.073
      540.23       31.187
      548.01        31.35
       555.9       31.475
      563.91        31.62
      572.03       31.722
      580.26       31.824
      588.62       31.979
      597.09       32.257
      605.69       32.454
      614.41       32.803
      623.25       33.047
      632.23       33.242
      641.33       33.645
      650.56       33.769
      659.93       34.164
      669.43       34.362
      679.07       34.646
      688.85       34.864
      698.77       35.219
      708.83       35.544
      719.03        35.72
      729.39       36.055
      739.89       36.335
      750.54       36.592
      761.35       36.883
      772.31       37.143
      783.43       37.483
      794.71        37.76
      806.15        37.92
      817.76       38.235
      829.53       38.497
      841.47       38.784
      853.59       38.915
      865.88       38.977
      878.35       39.163
      890.99       39.192
      903.82       39.343
      916.83       39.391
      930.03       39.546
      943.42        39.61
      957.01        39.75
      970.79       39.855
      984.76       39.753
      998.94       39.606
      1013.3       39.422
      1027.9       39.244
      1042.7       39.092
      1057.7        38.96
        1073       38.857
      1088.4       38.999
      1104.1       39.129
        1120       39.398
      1136.1       39.818
      1152.5        40.22
        1169       40.622
      1185.9        40.97
        1203       41.047
      1220.3       41.174
      1237.8       41.288
      1255.7       41.367
      1273.7       41.714
      1292.1       41.853
      1310.7       41.942
      1329.6       42.094
      1348.7       42.145
      1368.1       42.368
      1387.8       42.553
      1407.8       42.727
      1428.1       42.778
      1448.6       42.941
      1469.5       43.076
      1490.6       43.286
      1512.1       43.648
      1533.9       43.812
        1556       43.986
      1578.4       44.216
      1601.1       44.556
      1624.1        44.75
      1647.5       44.998
      1671.2       45.139
      1695.3       45.351
      1719.7       45.553
      1744.5       45.754
      1769.6       45.979
      1795.1        46.17
      1820.9       46.395
      1847.1       46.634
      1873.7       46.828
      1900.7       47.062
      1928.1       47.315
      1955.8       47.514
        1984       47.736
      2012.6       47.845
      2041.5       48.071
      2070.9       48.299
      2100.7       48.588
        2131       48.816
      2161.7       48.868
      2192.8       49.219
      2224.4       49.423
      2256.4       49.733
      2288.9       50.049
      2321.8       50.161
      2355.3       50.438
      2389.2       50.796
      2423.6       51.166
      2458.5       51.278
      2493.9       51.364
      2529.8       51.405
      2566.2       51.316
      2603.1       51.159
      2640.6       51.235
      2678.6       51.284
      2717.2       51.212
      2756.3         51.3
        2796       51.403
      2836.3       51.302
      2877.1       51.421
      2918.5        51.52
      2960.6       51.437
      3003.2       51.594
      3046.4       51.606
      3090.3        51.65
      3134.8       51.578
      3179.9       51.764
      3225.7        51.83
      3272.1       51.815
      3319.2       51.943
        3367       51.902
      3415.5       52.027
      3464.7       51.957
      3514.6       52.083
      3565.2       52.033
      3616.5       52.079
      3668.6        51.99
      3721.4       51.983
        3775       51.919
      3829.3       51.819
      3884.5       51.791
      3940.4       51.695
      3997.1       51.461
      4054.7       51.351
      4113.1        51.13
      4172.3       50.912
      4232.3       50.684
      4293.3       50.606
      4355.1       50.391
      4417.8        50.17
      4481.4       49.877
      4545.9       49.717
      4611.4       49.372
      4677.8       49.087
      4745.1       48.884
      4813.4       48.464
      4882.7       48.216
        4953       47.835
      5024.4       47.345
      5096.7           47
      5170.1       46.641
      5244.5       46.335
        5320       45.866
      5396.6       45.445
      5474.3       45.165
      5553.1       44.973
      5633.1         44.6
      5714.2       44.415
      5796.5       44.235
      5879.9       43.834
      5964.6       43.476
      6050.5       42.929
      6137.6       42.433
      6225.9        42.06
      6315.6       41.488
      6406.5       41.084
      6498.8       40.632
      6592.3        40.19
      6687.2       39.724
      6783.5       39.382
      6881.2       39.149
      6980.3       38.613
      7080.8       37.946
      7182.7       37.558
      7286.1       36.886
        7391       36.324
      7497.5       35.512
      7605.4       34.873
      7714.9       34.223
        7826       33.502
      7938.7       33.002
        8053       32.411
      8168.9       31.759
      8286.5        31.15
      8405.8       30.476
      8526.9       29.796
      8649.6        29.16
      8774.2       28.536
      8900.5       27.874
      9028.6       26.696
      9158.6       26.145
      9290.5       25.424
      9424.3       24.625
      9559.9       23.933
      9697.6       23.195
      9837.2       22.277
      9978.8       21.562
       10123       20.891
       10268       20.067
       10416       19.191
       10566       18.153
       10718       17.486
       10873       16.533
       11029       15.673
       11188       14.888
       11349       14.251
       11512        13.63
       11678       13.038
       11846       12.483
       12017       11.981
       12190        11.54
       12365       11.094
       12543       10.708
       12724       10.333
       12907       10.006
       13093       9.7025
       13281       9.4076
       13473        9.132
       13667       8.8789
       13863       8.6295
       14063       8.3906
       14266       10.523
       14471       10.276
       14679        10.01
       14891       13.998
       15105       13.616
       15323       13.284
       15543       13.063
       15767       12.818
       15994       12.414
       16224       12.059
       16458       11.739
       16695       11.382
       16935       11.052
       17179       10.747
       17426       10.429
       17677       10.138
       17932       9.8378
       18190       9.5798
       18452       9.2724
       18717       9.0382
       18987       8.7574
       19260       8.5147
       19538       8.2721
       19819        8.047
       20104       7.7959
       20394       7.5678
       20687       7.3066
       20985       6.9689
       21287       6.6441
       21594       6.2996
       21905       6.0052
       22220       5.7233
       22540       5.4501
       22865       5.1694
       23194       4.9287
       23528       4.6747
       23866       4.4456
       24210       4.2311
       24559       4.0318
       24912       3.8335
       25271       3.6469
       25635       3.4867
       26004       3.3476
       26378       3.2297
       26758       3.1019
       27143       2.9782
       27534       2.8743
       27931       2.7665
       28333       2.6595
       28741        2.567
       29154       2.4649
       29574       2.3762
