# Smoothed digitization from Lin and Poppe (2025), JGR Space Physics, Fig. 2b.
# Original cited EI source: Bartlett and Stelbovics (2002, 2004).
energy(eV) ionization(x1e-16)
      3.7316     0.090119
      3.8601       0.1369
       3.993      0.20246
      4.1305      0.29178
      4.2727      0.41014
      4.4198      0.56278
       4.572      0.75454
      4.7295      0.98931
      4.8923       1.2697
      5.0608       1.5964
       5.235       1.9682
      5.4153       2.3804
      5.6018       2.8275
      5.7947       3.3029
      5.9942       3.7982
      6.2006        4.304
      6.4141       4.8104
       6.635       5.3071
      6.8634       5.7842
      7.0998       6.2328
      7.3442        6.647
      7.5971       7.0231
      7.8587       7.3587
      8.1293       7.6528
      8.4092       7.9057
      8.6988       8.1195
      8.9983       8.2981
      9.3082       8.4455
      9.6287       8.5653
      9.9602       8.6605
      10.303       8.7348
      10.658       8.7906
      11.025       8.8359
      11.405       8.8736
      11.797       8.9046
      12.203       8.9288
      12.624       8.9456
      13.058       8.9539
      13.508       8.9531
      13.973       8.9433
      14.454       8.9256
      14.952       8.8998
      15.467       8.8652
      15.999       8.8215
       16.55       8.7691
       17.12       8.7091
       17.71       8.6424
       18.32       8.5691
       18.95       8.4898
      19.603       8.4046
      20.278       8.3145
      20.976         8.22
      21.698       8.1219
      22.446       8.0207
      23.218        7.917
      24.018        7.811
      24.845       7.7027
        25.7       7.5927
      26.585       7.4812
      27.501       7.3686
      28.448       7.2553
      29.427        7.142
      30.441       7.0292
      31.489       6.9173
      32.573       6.8064
      33.695       6.6968
      34.855       6.5889
      36.055       6.4827
      37.297       6.3786
      38.581       6.2768
      39.909       6.1779
      41.283       6.0821
      42.705       5.9896
      44.175       5.8999
      45.697       5.8131
       47.27       5.7288
      48.898       5.6469
      50.581       5.5673
      52.323       5.4899
      54.125       5.4145
      55.989       5.3408
      57.916        5.269
      59.911       5.1988
      61.974       5.1302
      64.108        5.063
      66.315       4.9972
      68.598       4.9327
      70.961       4.8694
      73.404       4.8078
      75.931       4.7477
      78.546       4.6893
      81.251       4.6322
      84.048       4.5767
      86.942       4.5225
      89.936       4.4695
      93.033       4.4175
      96.236       4.3663
       99.55        4.316
      102.98       4.2661
      106.52       4.2167
      110.19       4.1676
      113.99       4.1187
      117.91         4.07
      121.97       4.0213
      126.17       3.9725
      130.52       3.9237
      135.01       3.8746
      139.66       3.8255
      144.47       3.7764
      149.44       3.7273
      154.59       3.6781
      159.91       3.6287
      165.42        3.579
      171.11       3.5287
      177.01       3.4779
       183.1       3.4264
       189.4       3.3742
      195.93       3.3215
      202.67        3.268
      209.65       3.2138
      216.87       3.1591
      224.34       3.1038
      232.06       3.0481
      240.05       2.9921
      248.32        2.936
      256.87       2.8798
      265.72       2.8237
      274.86        2.768
      284.33       2.7127
      294.12       2.6579
      304.25       2.6036
      314.72       2.5497
      325.56       2.4963
      336.77       2.4433
      348.37       2.3909
      360.36       2.3391
      372.77       2.2878
      385.61       2.2371
      398.88        2.187
      412.62       2.1376
      426.83       2.0888
      441.52       2.0407
      456.73       1.9933
      472.45       1.9467
      488.72       1.9008
      505.55       1.8556
      522.96       1.8113
      540.97       1.7678
      559.59       1.7251
      578.86       1.6832
      598.79        1.642
      619.41       1.6016
      640.74        1.562
       662.8       1.5231
      685.63       1.4851
      709.24       1.4478
      733.66       1.4113
      758.92       1.3756
      785.05       1.3406
      812.08       1.3064
      840.05       1.2729
      868.97       1.2402
      898.89       1.2082
      929.85        1.177
      961.86       1.1465
      994.98       1.1167
      1029.2       1.0876
      1064.7       1.0592
      1101.3       1.0315
      1139.3       1.0045
      1178.5      0.97807
      1219.1       0.9523
      1261.1      0.92719
      1304.5       0.9027
      1349.4      0.87883
      1395.9      0.85554
      1443.9      0.83287
      1493.6      0.81072
      1545.1      0.78914
      1598.3      0.76809
      1653.3      0.74756
      1710.2      0.72755
      1769.1      0.70803
        1830      0.68901
      1893.1      0.67045
      1958.2      0.65235
      2025.7      0.63472
      2095.4      0.61753
      2167.6      0.60077
      2242.2      0.58444
      2319.4      0.56854
      2399.3      0.55303
      2481.9      0.53795
      2567.4      0.52325
      2655.8      0.50894
      2747.2      0.49501
      2841.8      0.48143
      2939.7       0.4682
      3040.9      0.45533
      3145.6      0.44278
      3253.9      0.43057
      3365.9      0.41868
      3481.9      0.40709
      3601.7      0.39581
      3725.8      0.38481
      3854.1      0.37408
      3986.8      0.36364
        4124      0.35348
        4266      0.34359
      4412.9      0.33397
      4564.9      0.32464
      4722.1      0.31559
      4884.7      0.30682
      5052.9      0.29833
      5226.9      0.29009
      5406.8       0.2821
        5593      0.27435
      5785.6      0.26681
      5984.8      0.25948
      6190.9      0.25233
      6404.1      0.24535
      6624.6      0.23852
      6852.7      0.23182
      7088.7      0.22523
      7332.7      0.21874
      7585.2      0.21234
      7846.4      0.20602
      8116.6      0.19978
      8396.1      0.19361
      8685.2      0.18752
      8984.2       0.1815
      9293.6      0.17556
      9613.6      0.16968
      9944.6      0.16388
       10287      0.15814
       10641      0.15247
       11008      0.14687
       11387      0.14134
       11779      0.13588
       12184       0.1305
