# Smoothed digitization from Lin and Poppe (2025), JGR Space Physics, Fig. 2b.
# Original cited EI source: Bartlett and Stelbovics (2002, 2004).
energy(eV) ionization(x1e-16)
      7.5592      0.16123
      7.7602       0.2265
      7.9666      0.31081
      8.1784      0.41694
      8.3959      0.54727
      8.6191      0.70344
      8.8483      0.88617
      9.0836       1.0951
      9.3251       1.3286
       9.573       1.5838
      9.8276       1.8568
      10.089       2.1419
      10.357        2.434
      10.633        2.727
      10.915       3.0151
      11.206       3.2928
      11.503       3.5552
      11.809       3.7987
      12.123       4.0188
      12.446       4.2146
      12.777       4.3864
      13.116       4.5358
      13.465       4.6646
      13.823       4.7757
      14.191       4.8716
      14.568       4.9551
      14.955       5.0289
      15.353       5.0951
      15.761       5.1555
       16.18       5.2114
      16.611       5.2634
      17.052       5.3114
      17.506       5.3574
      17.971       5.4002
      18.449       5.4392
       18.94       5.4736
      19.443       5.5024
       19.96       5.5245
      20.491       5.5385
      21.036       5.5462
      21.595       5.5483
      22.169       5.5446
      22.759       5.5351
      23.364       5.5201
      23.985       5.4993
      24.623       5.4732
      25.278       5.4422
       25.95       5.4065
       26.64       5.3665
      27.348       5.3226
      28.075       5.2747
      28.822       5.2234
      29.588       5.1693
      30.375       5.1126
      31.183       5.0537
      32.012       4.9931
      32.863        4.931
      33.737       4.8679
      34.634        4.804
      35.555       4.7396
        36.5       4.6747
      37.471       4.6097
      38.467       4.5445
       39.49       4.4795
       40.54       4.4145
      41.618       4.3501
      42.724        4.286
       43.86       4.2225
      45.027       4.1595
      46.224       4.0969
      47.453       4.0345
      48.715       3.9726
       50.01        3.911
       51.34       3.8496
      52.705       3.7884
      54.106       3.7274
      55.545       3.6665
      57.022       3.6057
      58.538       3.5448
      60.095       3.4841
      61.693       3.4233
      63.333       3.3627
      65.017       3.3022
      66.746       3.2421
      68.521       3.1822
      70.342        3.123
      72.213       3.0643
      74.133       3.0063
      76.104       2.9491
      78.128       2.8928
      80.205       2.8372
      82.338       2.7826
      84.527       2.7289
      86.775       2.6761
      89.082       2.6242
      91.451       2.5734
      93.882       2.5234
      96.379       2.4743
      98.941       2.4261
      101.57       2.3787
      104.27       2.3321
      107.05       2.2862
      109.89       2.2412
      112.81       2.1969
      115.81       2.1533
      118.89       2.1105
      122.05       2.0685
       125.3       2.0271
      128.63       1.9865
      132.05       1.9466
      135.56       1.9074
      139.17       1.8689
      142.87       1.8311
      146.67       1.7941
      150.57       1.7577
      154.57       1.7222
      158.68       1.6873
       162.9       1.6532
      167.23       1.6198
      171.68       1.5872
      176.24       1.5552
      180.93        1.524
      185.74       1.4934
      190.68       1.4635
      195.75       1.4343
      200.95       1.4057
       206.3       1.3777
      211.78       1.3504
      217.41       1.3236
      223.19       1.2975
      229.13       1.2718
      235.22       1.2467
      241.48       1.2222
       247.9       1.1982
      254.49       1.1747
      261.26       1.1518
       268.2       1.1293
      275.33       1.1073
      282.65       1.0857
      290.17       1.0646
      297.89       1.0439
      305.81       1.0236
      313.94       1.0038
      322.29      0.98429
      330.85      0.96518
      339.65      0.94645
      348.68       0.9281
      357.95       0.9101
      367.47      0.89244
      377.24      0.87511
      387.27      0.85812
      397.57      0.84144
      408.14       0.8251
         419      0.80907
      430.14      0.79333
      441.57      0.77789
      453.32      0.76273
      465.37      0.74782
      477.74      0.73317
      490.45      0.71879
      503.49      0.70464
      516.87      0.69074
      530.62      0.67708
      544.73      0.66364
      559.21      0.65044
      574.08      0.63749
      589.35      0.62477
      605.02      0.61229
       621.1      0.60004
      637.62      0.58803
      654.57      0.57624
      671.98       0.5647
      689.85      0.55339
      708.19       0.5423
      727.02      0.53144
      746.35      0.52079
       766.2      0.51033
      786.57      0.50007
      807.48      0.48999
      828.95      0.48011
         851      0.47039
      873.62      0.46086
      896.85      0.45149
       920.7      0.44229
      945.18      0.43326
      970.31       0.4244
      996.11      0.41569
      1022.6      0.40713
      1049.8      0.39873
      1077.7      0.39047
      1106.4      0.38235
      1135.8      0.37438
        1166      0.36655
        1197      0.35883
      1228.8      0.35125
      1261.5      0.34378
        1295      0.33645
      1329.5      0.32924
      1364.8      0.32218
      1401.1      0.31524
      1438.4      0.30844
      1476.6      0.30177
      1515.9      0.29523
      1556.2      0.28882
      1597.5      0.28256
        1640      0.27642
      1683.6       0.2704
      1728.4      0.26451
      1774.4      0.25873
      1821.5      0.25307
        1870      0.24752
      1919.7      0.24208
      1970.7      0.23673
      2023.1      0.23148
      2076.9      0.22633
      2132.2      0.22127
      2188.9      0.21631
      2247.1      0.21144
      2306.8      0.20668
      2368.1        0.202
      2431.1      0.19741
      2495.8      0.19291
      2562.1      0.18851
      2630.2      0.18421
      2700.2      0.17999
        2772      0.17587
      2845.7      0.17183
      2921.4       0.1679
        2999      0.16405
      3078.8      0.16029
      3160.6      0.15662
      3244.7      0.15304
        3331      0.14956
      3419.5      0.14615
      3510.4      0.14283
      3603.8       0.1396
      3699.6      0.13645
        3798      0.13338
        3899      0.13039
      4002.6      0.12748
