energy(eV) ionization(x1e-16)
    12.000      0.05263
    13.000      0.14736
    14.000      0.36214
    15.000      0.50379
    16.000      0.62521
    17.000      0.73323
    18.000      0.83053
    19.000      0.91865
    20.000      1.01640
    21.000      1.11267
    22.000      1.20286
    23.000      1.28716
    24.000      1.36582
    25.000      1.43911
    26.000      1.50735
    27.000      1.57086
    28.000      1.62992
    29.000      1.68483
    30.000      1.73588
    32.000      1.82740
    34.000      1.90639
    35.000      1.94170
    37.000      2.00492
    38.000      2.03314
    40.000      2.08355
    42.000      2.12678
    44.000      2.16372
    45.000      2.18008
    47.000      2.20901
    48.000      2.22174
    50.000      2.24406
    55.000      2.28436
    57.000      2.29531
    60.000      2.30721
    65.000      2.31709
    67.000      2.31817
    70.000      2.31726
    75.000      2.31013
    77.000      2.30565
    80.000      2.29750
    85.000      2.28074
    87.000      2.27311
    90.000      2.26088
    95.000      2.23872
    97.000      2.22936
   100.000      2.21488
   107.000      2.17959
   120.000      2.11095
   137.000      2.02024
   140.000      2.00445
   147.000      1.96805
   150.000      1.95266
   160.000      1.90244
   172.000      1.84451
   180.000      1.80738
   197.000      1.73250
   200.000      1.71985
   207.000      1.69097
   247.000      1.54198
   250.000      1.53182
   297.000      1.38858
   300.000      1.38035
   310.000      1.35365
   347.000      1.26372
   350.000      1.25697
   397.000      1.16036
   400.000      1.15472
   450.000      1.06864
   497.000      0.99928
   500.000      0.99518
   550.000      0.93174
   597.000      0.87951
   600.000      0.87639
   697.000      0.78685
   700.000      0.78439
   797.000      0.71292
   800.000      0.71093
   900.000      0.65084
   997.000      0.60210
  1000.000      0.60072
  1500.000      0.43747
  2000.000      0.34692
  2500.000      0.28887
  3000.000      0.24829
  4000.000      0.19499
  5000.000      0.16133
