# Smoothed digitization from Lin and Poppe (2025), JGR Space Physics, Fig. 2b.
# Original cited EI source: Bartlett and Stelbovics (2002, 2004).
energy(eV) ionization(x1e-16)
      5.4573       0.7103
      5.6266      0.76045
      5.8012      0.81624
      5.9813      0.87813
      6.1669      0.94664
      6.3582       1.0223
      6.5555       1.1057
       6.759       1.1974
      6.9687       1.2979
      7.1849       1.4079
      7.4079       1.5279
      7.6378       1.6588
      7.8748       1.8008
      8.1192       1.9545
      8.3711       2.1198
      8.6309       2.2969
      8.8987       2.4854
      9.1748       2.6847
      9.4595       2.8942
      9.7531       3.1127
      10.056       3.3391
      10.368       3.5712
      10.689        3.807
      11.021       4.0442
      11.363       4.2803
      11.716       4.5129
      12.079       4.7404
      12.454       4.9595
      12.841       5.1677
      13.239       5.3623
       13.65       5.5418
      14.074       5.7054
       14.51        5.851
       14.96       5.9789
      15.425       6.0889
      15.903       6.1818
      16.397       6.2587
      16.906       6.3206
       17.43       6.3693
      17.971        6.406
      18.529       6.4328
      19.104       6.4499
      19.697       6.4595
      20.308       6.4631
      20.938       6.4616
      21.588       6.4559
      22.258       6.4466
      22.948       6.4322
       23.66       6.4129
      24.395       6.3886
      25.152       6.3597
      25.932       6.3265
      26.737       6.2891
      27.566       6.2479
      28.422       6.2034
      29.304       6.1555
      30.213       6.1046
      31.151       6.0507
      32.117        5.994
      33.114       5.9348
      34.142       5.8736
      35.201       5.8104
      36.293       5.7456
       37.42       5.6793
      38.581       5.6118
      39.778       5.5433
      41.012       5.4741
      42.285       5.4044
      43.597       5.3344
       44.95       5.2642
      46.345       5.1943
      47.783       5.1245
      49.266       5.0552
      50.794       4.9863
      52.371        4.918
      53.996       4.8503
      55.671        4.783
      57.399       4.7162
       59.18       4.6498
      61.016       4.5838
       62.91       4.5182
      64.862       4.4529
      66.875        4.388
       68.95       4.3233
       71.09       4.2589
      73.296       4.1948
       75.57       4.1309
      77.915       4.0672
      80.333       4.0039
      82.826       3.9409
      85.396       3.8783
      88.046       3.8159
      90.778       3.7539
      93.595       3.6922
      96.499        3.631
      99.494       3.5701
      102.58       3.5097
      105.76       3.4499
      109.05       3.3905
      112.43       3.3317
      115.92       3.2736
      119.52       3.2162
      123.22       3.1594
      127.05       3.1034
      130.99       3.0481
      135.06       2.9936
      139.25       2.9397
      143.57       2.8868
      148.02       2.8347
      152.62       2.7834
      157.35        2.733
      162.23       2.6833
      167.27       2.6344
      172.46       2.5861
      177.81       2.5387
      183.33        2.492
      189.02        2.446
      194.88       2.4007
      200.93       2.3561
      207.17       2.3123
      213.59       2.2692
      220.22       2.2267
      227.06       2.1849
       234.1       2.1437
      241.37       2.1031
      248.86        2.063
      256.58       2.0233
      264.54       1.9844
      272.75       1.9459
      281.21        1.908
      289.94       1.8706
      298.94       1.8337
      308.21       1.7972
      317.78       1.7611
      327.64       1.7256
      337.81       1.6906
      348.29        1.656
       359.1        1.622
      370.24       1.5885
      381.73       1.5555
      393.57       1.5231
      405.79       1.4911
      418.38       1.4595
      431.36       1.4284
      444.75       1.3978
      458.55       1.3676
      472.78       1.3378
      487.45       1.3086
      502.57       1.2798
      518.17       1.2515
      534.25       1.2237
      550.83       1.1963
      567.92       1.1694
      585.54       1.1431
      603.71       1.1173
      622.45       1.0919
      641.76       1.0671
      661.68       1.0427
      682.21       1.0188
      703.38      0.99536
       725.2       0.9723
      747.71      0.94961
      770.91      0.92728
      794.83      0.90536
       819.5      0.88383
      844.93      0.86269
      871.15      0.84198
      898.18      0.82172
      926.05      0.80188
      954.79       0.7824
      984.41      0.76334
        1015      0.74471
      1046.5      0.72648
      1078.9      0.70868
      1112.4      0.69131
      1146.9      0.67433
      1182.5      0.65777
      1219.2      0.64157
        1257      0.62574
      1296.1      0.61025
      1336.3       0.5951
      1377.7      0.58029
      1420.5      0.56583
      1464.6      0.55171
        1510      0.53793
      1556.9       0.5245
      1605.2      0.51144
        1655      0.49869
      1706.4      0.48626
      1759.3      0.47412
      1813.9       0.4623
      1870.2      0.45077
      1928.2      0.43952
      1988.1      0.42854
      2049.7      0.41783
      2113.4      0.40735
      2178.9      0.39711
      2246.5      0.38709
      2316.3      0.37727
      2388.1      0.36768
      2462.2       0.3583
      2538.6      0.34913
      2617.4      0.34017
      2698.6      0.33143
      2782.4       0.3229
      2868.7      0.31458
      2957.8      0.30646
      3049.5      0.29855
      3144.2      0.29083
      3241.7      0.28328
      3342.3      0.27593
        3446      0.26877
        3553      0.26178
      3663.2      0.25497
      3776.9      0.24832
      3894.1      0.24183
      4014.9      0.23551
      4139.5      0.22934
        4268      0.22333
      4400.4      0.21748
        4537      0.21178
      4677.8      0.20622
      4822.9      0.20082
      4972.6      0.19556
      5126.9      0.19043
        5286      0.18543
        5450      0.18056
      5619.1      0.17581
      5793.5      0.17118
      5973.3      0.16668
      6158.6      0.16229
      6349.7      0.15801
      6546.8      0.15385
      6749.9      0.14979
      6959.4      0.14584
      7175.3        0.142
        7398      0.13825
      7627.6       0.1346
      7864.3      0.13105
      8108.3      0.12759
