energy(eV) elastic (x1e-16) ionization (x1e-16) others (x1e-16)
     1.000   5.93480   0.00000   0.11782
     1.054   5.97076   0.00000   0.09655
     1.111   6.02627   0.00000   0.07814
     1.171   6.16534   0.00000   0.05995
     1.235   6.30761   0.00000   0.04600
     1.301   6.45271   0.00000   0.03521
     1.372   6.57951   0.00000   0.02397
     1.446   6.70881   0.00000   0.02142
     1.524   6.83795   0.00000   0.01663
     1.607   6.96339   0.00000   0.01331
     1.694   7.09113   0.00000   0.01224
     1.786   7.18756   0.00000   0.01248
     1.882   7.28279   0.00000   0.01557
     1.984   7.38576   0.00000   0.01808
     2.091   7.49163   0.00000   0.02143
     2.205   7.52665   0.00000   0.02432
     2.324   7.55000   0.00000   0.02764
     2.450   7.55000   0.00000   0.03164
     2.582   7.57095   0.00000   0.03554
     2.722   7.62777   0.00000   0.03958
     2.869   7.81203   0.00000   0.04494
     3.024   7.94412   0.00000   0.04912
     3.188   8.02236   0.00000   0.05361
     3.361   8.06542   0.00000   0.05821
     3.542   8.11081   0.00000   0.06205
     3.734   8.15000   0.00000   0.06685
     3.936   8.15921   0.00000   0.07172
     4.149   8.22491   0.00000   0.07574
     4.374   8.32238   0.00000   0.07983
     4.610   8.39338   0.00000   0.08521
     4.860   8.46812   0.00000   0.09452
     5.123   8.55074   0.00000   0.10456
     5.400   8.63619   0.00000   0.12141
     5.692   8.72323   0.00000   0.14591
     6.000   8.81633   0.00000   0.22649
     6.325   8.91308   0.00000   0.28320
     6.667   9.01579   0.00000   0.35142
     7.028   9.12443   0.00000   0.41256
     7.408   9.23833   0.00000   0.47100
     7.809   9.35815   0.00000   0.52475
     8.232   9.48467   0.00000   0.53589
     8.677   9.61859   0.00000   0.53100
     9.147   9.75955   0.00000   0.73000
     9.642   9.90802   0.00000   1.36295
    10.164  10.08492   0.00000   1.46858
    10.714  10.22205   0.00000   1.43403
    11.293  10.27999   0.00000   1.39925
    11.904  10.50440   0.00000   1.40415
    12.549  10.81000   0.00000   1.42975
    13.228  10.94669   0.03083   1.39023
    13.943  11.00000   0.04604   1.34680
    14.698  11.00000   0.06833   1.30934
    15.493  11.00000   0.09969   1.28618
    16.332  10.83253   0.14772   1.26222
    17.216  10.72776   0.20155   1.24538
    18.147  10.56888   0.22692   1.34015
    19.129  10.43636   0.27925   1.38091
    20.164  10.37769   0.35073   1.38917
    21.255  10.23211   0.42423   1.39850
    22.406  10.07676   0.50412   1.46222
    23.618   9.91303   0.56147   1.48005
    24.896   9.76184   0.60416   1.50064
    26.243   9.60214   0.66571   1.51860
    27.664   9.44414   0.73459   1.53859
    29.161   9.28874   0.81060   1.56135
    30.739   9.13590   0.89447   1.58708
    32.402   8.98557   0.98701   1.61604
    34.155   8.83771   1.08914   1.64849
    36.004   8.65180   1.17514   1.67571
    37.952   8.43568   1.24355   1.69725
    40.006   8.22496   1.31595   1.72040
    42.170   8.01950   1.39257   1.74524
    44.452   7.81918   1.47364   1.77185
    46.858   7.62386   1.55944   1.80029
    49.393   7.43342   1.65023   1.83066
    52.066   7.19826   1.71372   1.83948
    54.884   6.95618   1.76958   1.84230
    57.854   6.72223   1.82727   1.84610
    60.985   6.49615   1.88683   1.85090
    64.285   6.27768   1.94833   1.85671
    67.763   6.06655   2.01184   1.86355
    71.430   5.86197   2.06361   1.86350
    75.296   5.66344   2.09417   1.85155
    79.370   5.47164   2.12518   1.84030
    83.665   5.28633   2.15664   1.82974
    88.192   5.10729   2.18858   1.81986
    92.965   4.93487   2.20100   1.72598
    97.996   4.76860   2.20100   1.59523
   103.298   4.60793   2.20100   1.48194
   108.888   4.45268   2.20100   1.38374
   114.781   4.30265   2.20100   1.29860
   120.992   4.15779   2.19659   1.23118
   127.539   4.01840   2.16856   1.20336
   134.441   3.88367   2.14089   1.17640
   141.716   3.75346   2.11358   1.15024
   149.385   3.62762   2.08661   1.12485
   157.468   3.50600   2.05999   1.10020
   165.990   3.38844   2.01959   1.07220
   174.972   3.27481   1.97402   1.04329
   184.440   3.16499   1.92947   1.01522
   194.421   3.05886   1.88593   0.98795
   204.942   2.95629   1.84336   0.96148
   216.032   2.85674   1.80620   0.93641
   227.722   2.76020   1.77355   0.91263
   240.045   2.66693   1.74148   0.88955
   253.035   2.57680   1.70999   0.86713
   266.727   2.48973   1.67907   0.84536
   281.161   2.40643   1.63418   0.82031
   296.376   2.32616   1.58624   0.79489
   312.414   2.24857   1.53971   0.77026
   329.319   2.17357   1.49455   0.74641
   347.140   2.10107   1.45071   0.72330
   365.925   2.02940   1.41584   0.70186
   385.727   1.95990   1.38320   0.68126
   406.600   1.89277   1.35131   0.66133
   428.602   1.82795   1.32016   0.64203
   451.795   1.76546   1.28853   0.62290
   476.244   1.70640   1.24351   0.59918
   502.015   1.64933   1.20006   0.57638
   529.181   1.59416   1.15812   0.55447
   557.817   1.54083   1.11766   0.53339
   588.002   1.48929   1.07860   0.51314
   619.821   1.43937   1.03858   0.49443
   653.362   1.39104   0.99865   0.47689
   688.718   1.34434   0.96025   0.45998
   725.987   1.29921   0.92333   0.44368
   765.273   1.25559   0.88783   0.42798
   806.684   1.21339   0.85347   0.41243
   850.337   1.17236   0.81929   0.39532
   896.352   1.13271   0.78648   0.37892
   944.857   1.09440   0.75498   0.36322
   995.986   1.05739   0.72474   0.34816
  1049.883   1.02163   0.69571   0.33374
  1106.696   0.98327   0.66793   0.31997
  1166.583   0.91859   0.64190   0.30714
  1229.711   0.85817   0.61688   0.29482
  1296.255   0.80172   0.59283   0.28300
  1366.400   0.74899   0.56972   0.27166
  1440.341   0.69972   0.54751   0.26076
  1518.283   0.65609   0.52612   0.25031
  1600.443   0.62276   0.50543   0.24025
  1687.049   0.59112   0.48556   0.23060
  1778.341   0.56110   0.46646   0.22133
  1874.573   0.53259   0.44811   0.21244
  1976.013   0.50554   0.43049   0.20391
  2082.943   0.47986   0.41356   0.19572
  2195.658   0.45532   0.39739   0.18789
  2314.473   0.43201   0.38187   0.18038
  2439.718   0.40989   0.36695   0.17317
  2571.740   0.38891   0.35262   0.16625
  2710.906   0.36900   0.33884   0.15960
  2857.603   0.35010   0.32561   0.15322
  3012.238   0.33229   0.31292   0.14709
  3175.241   0.31542   0.30075   0.14120
  3347.065   0.29941   0.28905   0.13555
  3528.187   0.28421   0.27781   0.13012
  3719.110   0.26979   0.26700   0.12492
  3920.365   0.25609   0.25661   0.11992
  4132.510   0.24310   0.24661   0.11510
  4356.135   0.23078   0.23692   0.11036
  4591.861   0.21909   0.22761   0.10581
  4840.344   0.20798   0.21867   0.10146
  5102.272   0.19745   0.21008   0.09728
  5378.375   0.18744   0.20182   0.09328
  5669.418   0.17794   0.19389   0.08945
  5976.211   0.16890   0.18622   0.08577
  6299.605   0.16032   0.17885   0.08225
  6640.500   0.15217   0.17177   0.07888
  6999.841   0.14443   0.16496   0.07564
  7378.628   0.13709   0.15843   0.07254
  7777.913   0.13012   0.15216   0.06956
  8198.804   0.12350   0.14616   0.06673
  8642.471   0.11718   0.14047   0.06408
  9110.146   0.11118   0.13501   0.06153
  9603.129   0.10549   0.12976   0.05908
 10122.789   0.10010   0.12471   0.05673
 10670.570   0.09497   0.11986   0.05448
 11247.994   0.09011   0.11520   0.05231
 11856.663   0.08555   0.11063   0.05016
 12498.271   0.08123   0.10622   0.04809
 13174.597   0.07712   0.10200   0.04611
 13887.523   0.07322   0.09794   0.04421
 14639.027   0.06952   0.09404   0.04238
 15431.198   0.06600   0.09030   0.04064
 16266.236   0.06267   0.08673   0.03896
 17146.461   0.05951   0.08337   0.03737
 18074.318   0.05652   0.08014   0.03583
 19052.386   0.05367   0.07703   0.03436
 20083.379   0.05097   0.07405   0.03295
 21170.164   0.04841   0.07118   0.03160
 22315.758   0.04597   0.06842   0.03031
 23523.345   0.04366   0.06574   0.02906
 24796.279   0.04146   0.06316   0.02787
 26138.095   0.03938   0.06068   0.02673
 27552.523   0.03740   0.05829   0.02563
 29043.490   0.03551   0.05600   0.02458
 30615.138   0.03373   0.05380   0.02357
 32271.835   0.03203   0.05169   0.02260
 34018.181   0.03045   0.04965   0.02169
 35859.028   0.02894   0.04770   0.02082
 37799.491   0.02751   0.04582   0.01998
 39844.958   0.02614   0.04402   0.01917
 42001.114   0.02485   0.04229   0.01840
 44273.947   0.02362   0.04062   0.01766
 46669.771   0.02247   0.03903   0.01693
 49195.241   0.02139   0.03749   0.01623
 51857.375   0.02036   0.03602   0.01556
 54663.565   0.01938   0.03461   0.01492
 57621.610   0.01845   0.03325   0.01430
 60739.724   0.01756   0.03194   0.01371
 64026.571   0.01672   0.03069   0.01315
 67491.281   0.01591   0.02949   0.01261
 71143.480   0.01515   0.02835   0.01210
 74993.312   0.01442   0.02724   0.01161
 79051.472   0.01373   0.02619   0.01114
 83329.235   0.01307   0.02517   0.01069
 87838.482   0.01244   0.02419   0.01026
 92591.742   0.01184   0.02325   0.00984
 97602.217   0.01127   0.02234   0.00944
102883.827   0.01073   0.02148   0.00906
108451.245   0.01022   0.02064   0.00869
114319.936   0.00972   0.01984   0.00834
120506.203   0.00926   0.01907   0.00800
127027.231   0.00881   0.01833   0.00768
133901.136   0.00839   0.01761   0.00737
141147.013   0.00798   0.01693   0.00707
148784.990   0.00760   0.01627   0.00679
156836.286   0.00724   0.01564   0.00651
165323.267   0.00689   0.01503   0.00625
174269.510   0.00656   0.01445   0.00600
183699.866   0.00624   0.01388   0.00575
193640.533   0.00594   0.01334   0.00552
204119.125   0.00566   0.01283   0.00530
215164.753   0.00538   0.01233   0.00508
226808.099   0.00512   0.01185   0.00488
239081.509   0.00488   0.01139   0.00468
252019.078   0.00464   0.01094   0.00449
265656.745   0.00442   0.01052   0.00431
280032.397   0.00421   0.01011   0.00414
295185.967   0.00401   0.00972   0.00397
311159.551   0.00381   0.00934   0.00381
327997.525   0.00363   0.00898   0.00366
345746.662   0.00346   0.00863   0.00351
364456.270   0.00329   0.00829   0.00337
384178.322   0.00313   0.00797   0.00323
404967.607   0.00298   0.00766   0.00310
426881.875   0.00284   0.00736   0.00298
449982.003   0.00270   0.00708   0.00286
474332.164   0.00257   0.00680   0.00274
500000.000   0.00245   0.00654   0.00263
