energy(eV)  elastic (x1e-16)  ionization (x1e-16)  others (x1e-16)
     1.000  27.66786   0.00000   0.32238
     1.054  27.12463   0.00000   0.40101
     1.111  26.59207   0.00000   0.49072
     1.171  26.06996   0.00000   0.58466
     1.235  25.55810   0.00000   0.68081
     1.301  25.05629   0.00000   0.89441
     1.372  24.56434   0.00000   1.64304
     1.446  24.08204   0.00000   3.29499
     1.524  23.60921   0.00000   5.12480
     1.607  23.14567   0.00000   6.11119
     1.694  22.69123   0.00000   6.83267
     1.786  22.24571   0.00000   7.90597
     1.882  21.80893   0.00000   7.75198
     1.984  21.38074   0.00000   6.98502
     2.091  20.96095   0.00000   6.64253
     2.205  20.54940   0.00000   5.77022
     2.324  20.14593   0.00000   5.35071
     2.450  19.75039   0.00003   4.58715
     2.582  19.36261   0.36944   3.17979
     2.722  18.98244   0.05047   2.42264
     2.869  18.60974   0.20373   1.87879
     3.024  18.24436   0.03418   1.39217
     3.188  17.88615   0.01975   1.06301
     3.361  17.53497   0.01141   0.88084
     3.542  17.19069   0.00659   0.74990
     3.734  16.85317   0.00381   0.64059
     3.936  16.52227   0.00220   0.54689
     4.149  16.19787   0.00127   0.46951
     4.374  15.87985   0.00073   0.40745
     4.610  15.56806   0.00042   0.35685
     4.860  15.26240   0.00025   0.31354
     5.123  14.83235   0.00014   0.27268
     5.400  14.26739   0.00008   0.23197
     5.692  13.72395   0.00005   0.19309
     6.000  13.20121   0.38656   0.15917
     6.325  12.69838   0.47560   0.13321
     6.667  12.21470   0.59011   0.11428
     7.028  11.74945   0.78174   0.09971
     7.408  11.30192   1.03224   0.08695
     7.809  11.24317   1.31331   0.09165
     8.232  11.29973   1.57174   0.12856
     8.677  11.35657   1.77061   0.18210
     9.147  11.41369   1.87429   0.24062
     9.642  11.47110   1.89441   0.30058
    10.164  11.47428   1.85036   0.35528
    10.714  11.42288   1.76924   0.41209
    11.293  11.37170   1.67714   0.49260
    11.904  11.32076   1.55701   0.58520
    12.549  11.27004   1.45708   0.66659
    13.228  11.21955   1.45453   0.74257
    13.943  11.16929   1.43679   0.80599
    14.698  11.11925   1.37295   0.89761
    15.493  10.90733   1.29757   0.99078
    16.332  10.60071   1.22417   1.07765
    17.216  10.30271   1.27323   1.17174
    18.147  10.01308   1.15593   1.29119
    19.129   9.73160   1.02354   1.44008
    20.164   9.42279   0.98144   1.60788
    21.255   8.94028   0.85715   1.77639
    22.406   8.48249   0.76306   1.91253
    23.618   8.04813   0.71187   2.00840
    24.896   7.63602   0.67397   2.09546
    26.243   7.24501   0.60846   2.19610
    27.664   6.87402   0.52801   2.30457
    29.161   6.52203   0.46736   2.41099
    30.739   6.24000   0.45091   2.52187
    32.402   6.02868   0.41546   2.63363
    34.155   5.82451   0.36064   2.73923
    36.004   5.62726   0.30460   2.82710
    37.952   5.43668   0.26363   2.89633
    40.006   5.25256   0.23727   2.96306
    42.170   5.07468   0.22143   3.04092
    44.452   4.90282   0.21202   3.12668
    46.858   4.73678   0.20429   3.20308
    49.393   4.57637   0.19616   3.26385
    52.066   4.42355   0.18913   3.31475
    54.884   4.27647   0.18357   3.34858
    57.854   4.13428   0.17833   3.37351
    60.985   3.99682   0.17154   3.39446
    64.285   3.86393   0.16162   3.42058
    67.763   3.73545   0.14879   3.44565
    71.430   3.61125   0.14580   3.47022
    75.296   3.48599   0.13970   3.49156
    79.370   3.30356   0.13386   3.50730
    83.665   3.13068   0.12827   3.51474
    88.192   2.96685   0.12291   3.51287
    92.965   2.81159   0.11777   3.50227
    97.996   2.66446   0.11285   3.48479
   103.298   2.60740   0.10813   3.45971
   108.888   2.50130   0.10361   3.43469
   114.781   2.39951   0.09928   3.40374
   120.992   2.30186   0.09513   3.37040
   127.539   2.20819   0.09115   3.33005
   134.441   2.11833   0.08734   3.28465
   141.716   2.03212   0.08369   3.23491
   149.385   1.94943   0.08019   3.17935
   157.468   1.87010   0.07684   3.11764
   165.990   1.79399   0.07363   3.05220
   174.972   1.72099   0.07055   2.98296
   184.440   1.65095   0.06760   2.91019
   194.421   1.58377   0.06478   2.83499
   204.942   1.51932   0.06207   2.75873
   216.032   1.45749   0.05947   2.68379
   227.722   1.39818   0.05699   2.60930
   240.045   1.34128   0.05461   2.53581
   253.035   1.28670   0.05232   2.46337
   266.727   1.23434   0.05014   2.39207
   281.161   1.18411   0.04804   2.32189
   296.376   1.13592   0.04603   2.25253
   312.414   1.08969   0.04411   2.18414
   329.319   1.04535   0.04227   2.11621
   347.140   1.00281   0.04050   2.04905
   365.925   0.96200   0.03881   1.98284
   385.727   0.92285   0.03718   1.91768
   406.600   0.88530   0.03563   1.85353
   428.602   0.84927   0.03414   1.79055
   451.795   0.81471   0.03271   1.72877
   476.244   0.78156   0.03135   1.66847
   502.015   0.74975   0.03004   1.60976
   529.181   0.71924   0.02878   1.55269
   557.817   0.68997   0.02758   1.49579
   588.002   0.66189   0.02643   1.43729
   619.821   0.63496   0.02532   1.37333
   653.362   0.60912   0.02426   1.30675
   688.718   0.58433   0.02325   1.24073
   725.987   0.56055   0.02228   1.17994
   765.273   0.53774   0.02135   1.12461
   806.684   0.51586   0.02046   1.07287
   850.337   0.49487   0.01960   1.02282
   896.352   0.47473   0.01878   0.97467
   944.857   0.45541   0.01800   0.92869
   995.986   0.43688   0.01725   0.88246
  1049.883   0.41910   0.01652   0.84195
  1106.696   0.40204   0.01583   0.80224
  1166.583   0.38568   0.01517   0.76446
  1229.711   0.36999   0.01454   0.72851
  1296.255   0.35493   0.01393   0.69431
  1366.400   0.34049   0.01335   0.66177
  1440.341   0.32663   0.01279   0.63079
  1518.283   0.31334   0.01226   0.60130
  1600.443   0.30059   0.01174   0.57324
  1687.049   0.28836   0.01125   0.54655
  1778.341   0.27662   0.01078   0.52116
  1874.573   0.26536   0.01033   0.49698
  1976.013   0.25457   0.00990   0.47392
  2082.943   0.24421   0.00949   0.45207
  2195.658   0.23427   0.00909   0.43122
  2314.473   0.22473   0.00871   0.41137
  2439.718   0.21559   0.00835   0.39247
  2571.740   0.20682   0.00800   0.37447
  2710.906   0.19840   0.00767   0.35733
  2857.603   0.19033   0.00735   0.34101
  3012.238   0.18258   0.00704   0.32547
  3175.241   0.17515   0.00674   0.31066
  3347.065   0.16802   0.00646   0.29656
  3528.187   0.16119   0.00619   0.28313
  3719.110   0.15463   0.00593   0.27033
  3920.365   0.14833   0.00569   0.25814
  4132.510   0.14230   0.00545   0.24652
  4356.135   0.13651   0.00522   0.23545
  4591.861   0.13095   0.00500   0.22490
  4840.344   0.12562   0.00479   0.21484
  5102.272   0.12051   0.00459   0.20526
  5378.375   0.11561   0.00440   0.19612
  5669.418   0.11090   0.00422   0.18742
  5976.211   0.10639   0.00404   0.17911
  6299.605   0.10206   0.00387   0.17120
  6640.500   0.09791   0.00371   0.16365
  6999.841   0.09392   0.00356   0.15645
  7378.628   0.09010   0.00341   0.14959
  7777.913   0.08643   0.00327   0.14304
  8198.804   0.08292   0.00313   0.13679
  8642.471   0.07954   0.00300   0.13084
  9110.146   0.07630   0.00287   0.12515
  9603.129   0.07320   0.00275   0.11973
 10122.789   0.07022   0.00264   0.11456
 10670.570   0.06736   0.00253   0.10962
 11247.994   0.06462   0.00242   0.10491
 11856.663   0.06199   0.00232   0.10041
 12498.271   0.05947   0.00222   0.09611
 13174.597   0.05705   0.00213   0.09201
 13887.523   0.05473   0.00204   0.08810
 14639.027   0.05250   0.00196   0.08436
 15431.198   0.05036   0.00188   0.08080
 16266.236   0.04831   0.00180   0.07739
 17146.461   0.04635   0.00172   0.07413
 18074.318   0.04446   0.00165   0.07102
 19052.386   0.04265   0.00158   0.06805
 20083.379   0.04092   0.00152   0.06522
 21170.164   0.03925   0.00145   0.06250
 22315.758   0.03765   0.00139   0.05991
 23523.345   0.03612   0.00133   0.05744
 24796.279   0.03465   0.00128   0.05507
 26138.095   0.03324   0.00122   0.05280
 27552.523   0.03189   0.00117   0.05064
 29043.490   0.03059   0.00112   0.04857
 30615.138   0.02935   0.00108   0.04659
 32271.835   0.02815   0.00103   0.04470
 34018.181   0.02701   0.00099   0.04289
 35859.028   0.02591   0.00095   0.04116
 37799.491   0.02485   0.00091   0.03951
 39844.958   0.02384   0.00087   0.03792
 42001.114   0.02287   0.00083   0.03641
 44273.947   0.02194   0.00080   0.03496
 46669.771   0.02105   0.00077   0.03357
 49195.241   0.02019   0.00073   0.03224
 51857.375   0.01937   0.00070   0.03097
 54663.565   0.01858   0.00067   0.02975
 57621.610   0.01783   0.00065   0.02858
 60739.724   0.01710   0.00062   0.02747
 64026.571   0.01640   0.00059   0.02640
 67491.281   0.01574   0.00057   0.02537
 71143.480   0.01510   0.00055   0.02439
 74993.312   0.01448   0.00052   0.02345
 79051.472   0.01389   0.00050   0.02255
 83329.235   0.01333   0.00048   0.02168
 87838.482   0.01278   0.00046   0.02085
 92591.742   0.01226   0.00044   0.02006
 97602.217   0.01177   0.00042   0.01930
102883.827   0.01129   0.00040   0.01857
108451.245   0.01083   0.00039   0.01787
114319.936   0.01039   0.00037   0.01720
120506.203   0.00996   0.00036   0.01656
127027.231   0.00956   0.00034   0.01594
133901.136   0.00917   0.00033   0.01535
141147.013   0.00880   0.00031   0.01478
148784.990   0.00844   0.00030   0.01423
156836.286   0.00810   0.00029   0.01371
165323.267   0.00777   0.00028   0.01321
174269.510   0.00745   0.00026   0.01272
183699.866   0.00715   0.00025   0.01226
193640.533   0.00686   0.00024   0.01181
204119.125   0.00658   0.00023   0.01139
215164.753   0.00631   0.00022   0.01098
226808.099   0.00605   0.00021   0.01058
239081.509   0.00581   0.00020   0.01020
252019.078   0.00557   0.00020   0.00984
265656.745   0.00534   0.00019   0.00949
280032.397   0.00513   0.00018   0.00915
295185.967   0.00492   0.00017   0.00883
311159.551   0.00472   0.00017   0.00852
327997.525   0.00453   0.00016   0.00822
345746.662   0.00434   0.00015   0.00793
364456.270   0.00416   0.00015   0.00766
384178.322   0.00399   0.00014   0.00739
404967.607   0.00383   0.00013   0.00713
426881.875   0.00368   0.00013   0.00689
449982.003   0.00353   0.00012   0.00665
474332.164   0.00338   0.00012   0.00642
500000.000   0.00325   0.00011   0.00620
