energy(eV) elastic (x1e-16) ionization (x1e-16) others (x1e-16)
     1.000   4.83625   0.00000   0.00438
     1.054   4.98035   0.00000   0.00482
     1.111   5.14508   0.00000   0.00547
     1.171   5.38711   0.00000   0.00716
     1.235   5.64052   0.00000   0.00938
     1.301   5.90596   0.00000   0.01224
     1.372   6.18911   0.00000   0.01450
     1.446   6.48582   0.00000   0.01717
     1.524   6.77450   0.00000   0.02160
     1.607   7.02361   0.00000   0.03123
     1.694   7.28189   0.00000   0.04514
     1.786   7.76637   0.00000   0.10789
     1.882   8.30042   0.00000   0.35709
     1.984   8.97861   0.00000   0.59088
     2.091   9.73780   0.00000   0.96800
     2.205  10.91898   0.00000   1.10039
     2.324  12.43389   0.00000   1.17226
     2.450  14.91328   0.00000   1.10874
     2.582  16.81115   0.00000   0.98229
     2.722  18.29569   0.00000   0.80481
     2.869  20.35431   0.00000   0.54627
     3.024  21.05098   0.00000   0.41291
     3.188  21.15515   0.00000   0.27805
     3.361  21.00683   0.00000   0.16104
     3.542  20.73461   0.00000   0.09769
     3.734  20.42973   0.00000   0.06570
     3.936  19.69478   0.00000   0.04667
     4.149  17.74434   0.00000   0.03403
     4.374  16.61913   0.00000   0.02511
     4.610  15.43485   0.00000   0.01861
     4.860  14.59738   0.00000   0.01383
     5.123  12.69654   0.00000   0.01029
     5.400  11.76893   0.00000   0.00765
     5.692  11.71105   0.00000   0.00569
     6.000  11.64879   0.00000   0.00424
     6.325  11.60000   0.00000   0.00315
     6.667  11.60000   0.00000   0.00235
     7.028  11.54340   0.00000   0.00277
     7.408  11.50000   0.00000   0.00423
     7.809  11.50000   0.00000   0.00926
     8.232  11.50000   0.00000   0.09746
     8.677  11.50000   0.00000   0.15209
     9.147  11.42011   0.00000   0.21740
     9.642  11.32112   0.00000   0.28777
    10.164  11.24383   0.00000   0.35106
    10.714  11.17779   0.00000   0.41848
    11.293  11.11986   0.00000   0.51747
    11.904  11.05844   0.00000   0.62185
    12.549  10.99493   0.00000   0.77964
    13.228  10.92639   0.00000   1.03870
    13.943  10.85465   0.00000   1.39424
    14.698  10.77959   0.00000   1.54014
    15.493  10.70064   0.00000   1.54471
    16.332  10.61633   0.02828   1.56440
    17.216  10.52775   0.07434   1.60996
    18.147  10.43454   0.11825   1.64466
    19.129  10.33636   0.18205   1.67227
    20.164  10.27769   0.25220   1.70906
    21.255  10.20000   0.33921   1.74470
    22.406  10.20000   0.43209   1.78350
    23.618  10.16809   0.52595   1.82111
    24.896  10.10497   0.63124   1.86837
    26.243  10.00659   0.71689   1.87594
    27.664   9.90616   0.81032   1.88580
    29.161   9.80673   0.91592   1.90231
    30.739   9.70830   1.03529   1.92525
    32.402   9.61085   1.17021   1.95442
    34.155   9.51439   1.32271   1.98965
    36.004   9.31788   1.44014   2.00597
    37.952   9.04079   1.51807   2.00470
    40.006   8.77195   1.60022   2.00649
    42.170   8.51109   1.68682   2.01112
    44.452   8.25800   1.77809   2.01835
    46.858   8.01243   1.87431   2.02802
    49.393   7.77416   1.97574   2.03993
    52.066   7.52040   2.03393   2.01502
    54.884   7.26834   2.07894   1.98086
    57.854   7.02474   2.12495   1.94890
    60.985   6.78930   2.17198   1.91886
    64.285   6.56175   2.22005   1.89048
    67.763   6.34183   2.26918   1.86364
    71.430   6.12851   2.31549   1.84300
    75.296   5.92117   2.35633   1.83199
    79.370   5.72084   2.39789   1.82252
    83.665   5.52729   2.44019   1.81428
    88.192   5.34029   2.48323   1.80704
    92.965   5.15997   2.50000   1.74778
    97.996   4.98596   2.50000   1.66057
   103.298   4.81782   2.50000   1.57864
   108.888   4.65534   2.50000   1.50134
   114.781   4.49835   2.50000   1.42818
   120.992   4.34686   2.49708   1.36256
   127.539   4.20161   2.47848   1.31948
   134.441   4.06121   2.46001   1.27792
   141.716   3.92550   2.44168   1.23779
   149.385   3.79432   2.42349   1.19901
   157.468   3.66753   2.40544   1.16152
   165.990   3.54402   2.37194   1.12376
   174.972   3.42426   2.33228   1.08665
   184.440   3.30855   2.29328   1.05080
   194.421   3.19675   2.25494   1.01617
   204.942   3.08873   2.21723   0.98271
   216.032   2.98431   2.15349   0.94956
   227.722   2.88339   2.06954   0.91686
   240.045   2.78587   1.98887   0.88531
   253.035   2.69165   1.91133   0.85486
   266.727   2.60062   1.83682   0.82548
   281.161   2.51304   1.76405   0.79574
   296.376   2.42852   1.69381   0.76668
   312.414   2.34685   1.62638   0.73870
   329.319   2.26792   1.56163   0.71175
   347.140   2.19164   1.49945   0.68579
   365.925   2.11756   1.44026   0.65988
   385.727   2.04591   1.38349   0.63479
   406.600   1.97669   1.32896   0.61066
   428.602   1.90981   1.27658   0.58746
   451.795   1.84531   1.22631   0.56520
   476.244   1.78434   1.17850   0.54450
   502.015   1.72539   1.13256   0.52456
   529.181   1.66838   1.08841   0.50535
   557.817   1.61326   1.04598   0.48685
   588.002   1.55996   1.00520   0.46904
   619.821   1.50682   0.96585   0.45077
   653.362   1.45454   0.92793   0.43256
   688.718   1.40408   0.89151   0.41508
   725.987   1.35536   0.85651   0.39832
   765.273   1.30833   0.82289   0.38223
   806.684   1.26339   0.79062   0.36675
   850.337   1.22230   0.75981   0.35170
   896.352   1.18254   0.73019   0.33726
   944.857   1.14408   0.70174   0.32342
   995.986   1.10688   0.67439   0.31014
  1049.883   1.07088   0.64810   0.29742
  1106.696   1.03091   0.62279   0.28523
  1166.583   0.95523   0.59811   0.27370
  1229.711   0.88511   0.57441   0.26263
  1296.255   0.82014   0.55165   0.25201
  1366.400   0.75994   0.52979   0.24182
  1440.341   0.70415   0.50880   0.23204
  1518.283   0.65609   0.48868   0.22269
  1600.443   0.62276   0.46951   0.21382
  1687.049   0.59112   0.45110   0.20530
  1778.341   0.56110   0.43340   0.19712
  1874.573   0.53259   0.41640   0.18926
  1976.013   0.50554   0.40007   0.18172
  2082.943   0.47986   0.38437   0.17448
  2195.658   0.45532   0.36945   0.16706
  2314.473   0.43201   0.35514   0.15987
  2439.718   0.40989   0.34139   0.15299
  2571.740   0.38891   0.32816   0.14641
  2710.906   0.36900   0.31545   0.14011
  2857.603   0.35010   0.30323   0.13408
  3012.238   0.33229   0.29130   0.12838
  3175.241   0.31542   0.27977   0.12296
  3347.065   0.29941   0.26869   0.11776
  3528.187   0.28421   0.25806   0.11278
  3719.110   0.26979   0.24784   0.10801
  3920.365   0.25609   0.23803   0.10344
  4132.510   0.24310   0.22862   0.09908
  4356.135   0.23078   0.21964   0.09491
  4591.861   0.21909   0.21100   0.09092
  4840.344   0.20798   0.20271   0.08709
  5102.272   0.19745   0.19474   0.08343
  5378.375   0.18744   0.18709   0.07992
  5669.418   0.17794   0.17973   0.07656
  5976.211   0.16890   0.17267   0.07328
  6299.605   0.16032   0.16588   0.07013
  6640.500   0.15217   0.15936   0.06711
  6999.841   0.14443   0.15310   0.06422
  7378.628   0.13709   0.14708   0.06146
  7777.913   0.13012   0.14130   0.05882
  8198.804   0.12350   0.13573   0.05627
  8642.471   0.11718   0.13032   0.05376
  9110.146   0.11118   0.12514   0.05136
  9603.129   0.10549   0.12016   0.04907
 10122.789   0.10010   0.11538   0.04688
 10670.570   0.09497   0.11079   0.04478
 11247.994   0.09011   0.10638   0.04279
 11856.663   0.08555   0.10224   0.04089
 12498.271   0.08123   0.09826   0.03908
 13174.597   0.07712   0.09445   0.03735
 13887.523   0.07322   0.09078   0.03569
 14639.027   0.06952   0.08725   0.03411
 15431.198   0.06600   0.08386   0.03260
 16266.236   0.06267   0.08060   0.03114
 17146.461   0.05951   0.07742   0.02971
 18074.318   0.05652   0.07437   0.02835
 19052.386   0.05367   0.07144   0.02704
 20083.379   0.05097   0.06862   0.02580
 21170.164   0.04841   0.06591   0.02461
 22315.758   0.04597   0.06332   0.02348
 23523.345   0.04366   0.06082   0.02244
 24796.279   0.04146   0.05842   0.02145
 26138.095   0.03938   0.05612   0.02051
 27552.523   0.03740   0.05391   0.01961
 29043.490   0.03551   0.05179   0.01875
 30615.138   0.03373   0.04975   0.01793
 32271.835   0.03203   0.04779   0.01714
 34018.181   0.03045   0.04591   0.01643
 35859.028   0.02894   0.04411   0.01575
 37799.491   0.02751   0.04238   0.01510
 39844.958   0.02614   0.04072   0.01448
 42001.114   0.02485   0.03912   0.01388
 44273.947   0.02362   0.03759   0.01330
 46669.771   0.02247   0.03612   0.01268
 49195.241   0.02139   0.03471   0.01207
 51857.375   0.02036   0.03336   0.01149
 54663.565   0.01938   0.03205   0.01093
 57621.610   0.01845   0.03080   0.01040
 60739.724   0.01756   0.02960   0.00990
 64026.571   0.01672   0.02844   0.00942
 67491.281   0.01591   0.02733   0.00899
 71143.480   0.01515   0.02625   0.00858
 74993.312   0.01442   0.02522   0.00818
 79051.472   0.01373   0.02422   0.00781
 83329.235   0.01307   0.02327   0.00745
 87838.482   0.01244   0.02235   0.00711
 92591.742   0.01184   0.02147   0.00678
 97602.217   0.01127   0.02063   0.00647
102883.827   0.01073   0.01982   0.00618
108451.245   0.01022   0.01904   0.00589
114319.936   0.00972   0.01829   0.00562
120506.203   0.00926   0.01757   0.00537
127027.231   0.00881   0.01688   0.00512
133901.136   0.00839   0.01621   0.00489
141147.013   0.00798   0.01557   0.00466
148784.990   0.00760   0.01496   0.00445
156836.286   0.00724   0.01437   0.00424
165323.267   0.00689   0.01381   0.00405
174269.510   0.00656   0.01326   0.00387
183699.866   0.00624   0.01274   0.00369
193640.533   0.00594   0.01224   0.00352
204119.125   0.00566   0.01176   0.00336
215164.753   0.00538   0.01129   0.00320
226808.099   0.00512   0.01085   0.00306
239081.509   0.00488   0.01042   0.00292
252019.078   0.00464   0.01001   0.00278
265656.745   0.00442   0.00962   0.00266
280032.397   0.00421   0.00924   0.00253
295185.967   0.00401   0.00888   0.00242
311159.551   0.00381   0.00853   0.00231
327997.525   0.00363   0.00819   0.00220
345746.662   0.00346   0.00787   0.00210
364456.270   0.00329   0.00756   0.00201
384178.322   0.00313   0.00726   0.00191
404967.607   0.00298   0.00698   0.00183
426881.875   0.00284   0.00670   0.00174
449982.003   0.00270   0.00644   0.00166
474332.164   0.00257   0.00618   0.00159
500000.000   0.00245   0.00594   0.00151
