energy(eV) elastic (x1e-16) ionization (x1e-16) others (x1e-16)
     1.000   2.21218   0.00000   0.00000
     1.054   2.31097   0.00000   0.00000
     1.111   2.41418   0.00000   0.00000
     1.171   2.52199   0.00000   0.00000
     1.235   2.63461   0.00000   0.00000
     1.301   2.75227   0.00000   0.00000
     1.372   2.87518   0.00000   0.00000
     1.446   3.00358   0.00000   0.00000
     1.524   3.13771   0.00000   0.00000
     1.607   3.27784   0.00000   0.00000
     1.694   3.42422   0.00000   0.00000
     1.786   3.57714   0.00000   0.00000
     1.882   3.73688   0.00000   0.00000
     1.984   3.90377   0.00000   0.00000
     2.091   4.07810   0.00000   0.00000
     2.205   4.26022   0.00000   0.00000
     2.324   4.45047   0.00000   0.00000
     2.450   4.64922   0.00000   0.00000
     2.582   4.85684   0.00000   0.00000
     2.722   5.07374   0.00000   0.00000
     2.869   5.30032   0.00000   0.00000
     3.024   5.53703   0.00000   0.00000
     3.188   5.78430   0.00000   0.00000
     3.361   6.04261   0.00000   0.00000
     3.542   6.31246   0.00000   0.00000
     3.734   6.59436   0.00000   0.00000
     3.936   6.88885   0.00000   0.00000
     4.149   7.19650   0.00000   0.00000
     4.374   7.51788   0.00000   0.00000
     4.610   7.85361   0.00000   0.00000
     4.860   8.20433   0.00000   0.00000
     5.123   8.62248   0.00000   0.00000
     5.400   9.12607   0.00000   0.00000
     5.692   9.65907   0.00000   0.00000
     6.000  10.22320   0.00000   0.00000
     6.325  10.82027   0.00000   0.00000
     6.667  11.45222   0.00000   0.00000
     7.028  12.12108   0.00000   0.00000
     7.408  12.82900   0.00000   0.00000
     7.809  13.71566   0.00000   0.00000
     8.232  14.70857   0.00000   0.00000
     8.677  15.77336   0.00000   0.00000
     9.147  16.91524   0.00000   0.00000
     9.642  18.13978   0.00000   0.00077
    10.164  19.45297   0.00094   0.00196
    10.714  19.91625   0.00194   0.00409
    11.293  20.07293   0.00257   0.01247
    11.904  20.23084   0.00356   0.02593
    12.549  20.39000   0.00517   0.03911
    13.228  20.55041   0.01053   0.06447
    13.943  20.71209   0.02902   0.12152
    14.698  20.87503   0.04281   0.23848
    15.493  20.74786   0.06115   0.34246
    16.332  19.72254   0.08909   0.44527
    17.216  18.74789   0.10772   0.51181
    18.147  17.82140   0.11312   0.61255
    19.129  16.94070   0.11633   0.79705
    20.164  16.10352   0.11369   1.08978
    21.255  15.48963   0.11122   1.23175
    22.406  14.92482   0.10842   1.41153
    23.618  14.38061   0.10587   1.63087
    24.896  13.85624   0.10343   1.89371
    26.243  13.33643   0.09191   2.06022
    27.664  12.82996   0.08674   2.24399
    29.161  12.34272   0.08374   2.44977
    30.739  11.85959   0.08099   2.62705
    32.402  11.35853   0.07835   2.77120
    34.155  10.87865   0.07306   2.91900
    36.004  10.41903   0.06773   3.05512
    37.952   9.97884   0.06344   3.16686
    40.006   9.55724   0.06257   3.28233
    42.170   8.95034   0.06175   3.33950
    44.452   8.35163   0.06129   3.39338
    46.858   7.79297   0.06089   3.42892
    49.393   7.27168   0.05967   3.45762
    52.066   6.95721   0.05788   3.47139
    54.884   6.74471   0.05614   3.48069
    57.854   6.53870   0.05453   3.48371
    60.985   6.30548   0.05299   3.49141
    64.285   6.00891   0.05143   3.50572
    67.763   5.72628   0.04995   3.51787
    71.430   5.45695   0.04934   3.52291
    75.296   5.20028   0.04874   3.50986
    79.370   4.95304   0.04811   3.52818
    83.665   4.75620   0.04722   3.53336
    88.192   4.57777   0.04631   3.51883
    92.965   4.41484   0.04459   3.49021
    97.996   4.26462   0.04289   3.44653
   103.298   4.17267   0.04189   3.40981
   108.888   4.12422   0.04102   3.39070
   114.781   4.07633   0.04015   3.34527
   120.992   4.02900   0.03928   3.28663
   127.539   3.98317   0.03838   3.23076
   134.441   3.93941   0.03750   3.17374
   141.716   3.89613   0.03653   3.11739
   149.385   3.85332   0.03537   3.05491
   157.468   3.74612   0.03425   2.99294
   165.990   3.63662   0.03359   2.94095
   174.972   3.53032   0.03301   2.89293
   184.440   3.43355   0.03241   2.83669
   194.421   3.33945   0.03181   2.76563
   204.942   3.24856   0.03097   2.70041
   216.032   3.16086   0.03000   2.64420
   227.722   3.07552   0.02922   2.58886
   240.045   2.99249   0.02840   2.51176
   253.035   2.91204   0.02713   2.43496
   266.727   2.83486   0.02638   2.35275
   281.161   2.75973   0.02570   2.27696
   296.376   2.68659   0.02491   2.21130
   312.414   2.61588   0.02416   2.14050
   329.319   2.54716   0.02342   2.07099
   347.140   2.48026   0.02271   2.00379
   365.925   2.41200   0.02203   1.94491
   385.727   2.34507   0.02136   1.88927
   406.600   2.28148   0.02072   1.83060
   428.602   2.22286   0.02010   1.76071
   451.795   2.16534   0.01949   1.69436
   476.244   2.10459   0.01891   1.63697
   502.015   2.04536   0.01835   1.58211
   529.181   1.98556   0.01780   1.53240
   557.817   1.92751   0.01727   1.48342
   588.002   1.87116   0.01676   1.43368
   619.821   1.81731   0.01626   1.38181
   653.362   1.76553   0.01578   1.32894
   688.718   1.71522   0.01532   1.27702
   725.987   1.66637   0.01487   1.22348
   765.273   1.61891   0.01443   1.17362
   806.684   1.57197   0.01401   1.13123
   850.337   1.52202   0.01360   1.09871
   896.352   1.47366   0.01320   1.05274
   944.857   1.42775   0.01282   1.00871
   995.986   1.38333   0.01245   0.96392
  1049.883   1.33856   0.01209   0.93040
  1106.696   1.29510   0.01174   0.89409
  1166.583   1.25305   0.01140   0.85919
  1229.711   1.21236   0.01107   0.82567
  1296.255   1.17289   0.01075   0.79346
  1366.400   1.13465   0.01044   0.76252
  1440.341   1.09766   0.01014   0.73279
  1518.283   1.06152   0.00985   0.70422
  1600.443   1.02542   0.00957   0.67678
  1687.049   0.99054   0.00930   0.65041
  1778.341   0.95662   0.00904   0.62507
  1874.573   0.92333   0.00878   0.60072
  1976.013   0.89120   0.00853   0.57733
  2082.943   0.85980   0.00829   0.55486
  2195.658   0.82939   0.00806   0.53326
  2314.473   0.80006   0.00783   0.51251
  2439.718   0.77176   0.00761   0.49257
  2571.740   0.74376   0.00740   0.47341
  2710.906   0.71618   0.00719   0.45500
  2857.603   0.68963   0.00699   0.43731
  3012.238   0.66405   0.00679   0.42031
  3175.241   0.63931   0.00660   0.40398
  3347.065   0.61550   0.00642   0.38828
  3528.187   0.59241   0.00624   0.37320
  3719.110   0.56937   0.00607   0.35871
  3920.365   0.54722   0.00590   0.34478
  4132.510   0.52615   0.00574   0.33140
  4356.135   0.50602   0.00558   0.31853
  4591.861   0.48627   0.00543   0.30617
  4840.344   0.46667   0.00528   0.29430
  5102.272   0.44791   0.00513   0.28288
  5378.375   0.42997   0.00499   0.27191
  5669.418   0.41275   0.00486   0.26137
  5976.211   0.39622   0.00472   0.25124
  6299.605   0.37984   0.00460   0.24150
  6640.500   0.36410   0.00447   0.23215
  6999.841   0.34901   0.00435   0.22315
  7378.628   0.33433   0.00423   0.21451
  7777.913   0.32027   0.00412   0.20621
  8198.804   0.30672   0.00401   0.19822
  8642.471   0.29366   0.00390   0.19055
  9110.146   0.28112   0.00379   0.18318
  9603.129   0.26897   0.00369   0.17609
 10122.789   0.25738   0.00359   0.16928
 10670.570   0.24635   0.00350   0.16274
 11247.994   0.23580   0.00340   0.15645
 11856.663   0.22569   0.00331   0.15040
 12498.271   0.21602   0.00322   0.14459
 13174.597   0.20624   0.00314   0.13900
 13887.523   0.19690   0.00305   0.13363
 14639.027   0.18798   0.00297   0.12847
 15431.198   0.17954   0.00289   0.12351
 16266.236   0.17153   0.00282   0.11875
 17146.461   0.16387   0.00274   0.11416
 18074.318   0.15671   0.00267   0.10976
 19052.386   0.14996   0.00260   0.10553
 20083.379   0.14338   0.00253   0.10146
 21170.164   0.13708   0.00246   0.09755
 22315.758   0.13106   0.00240   0.09379
 23523.345   0.12530   0.00234   0.09017
 24796.279   0.11980   0.00227   0.08670
 26138.095   0.11453   0.00222   0.08336
 27552.523   0.10950   0.00216   0.08015
 29043.490   0.10469   0.00210   0.07706
 30615.138   0.10009   0.00205   0.07410
 32271.835   0.09570   0.00199   0.07124
 34018.181   0.09149   0.00194   0.06850
 35859.028   0.08747   0.00189   0.06587
 37799.491   0.08363   0.00184   0.06334
 39844.958   0.07996   0.00179   0.06090
 42001.114   0.07644   0.00175   0.05856
 44273.947   0.07309   0.00170   0.05631
 46669.771   0.06988   0.00166   0.05415
 49195.241   0.06681   0.00162   0.05207
 51857.375   0.06387   0.00157   0.05007
 54663.565   0.06107   0.00153   0.04815
 57621.610   0.05838   0.00149   0.04630
 60739.724   0.05582   0.00146   0.04452
 64026.571   0.05337   0.00142   0.04281
 67491.281   0.05102   0.00138   0.04117
 71143.480   0.04878   0.00135   0.03959
 74993.312   0.04664   0.00131   0.03807
 79051.472   0.04459   0.00128   0.03662
 83329.235   0.04263   0.00125   0.03521
 87838.482   0.04076   0.00121   0.03386
 92591.742   0.03897   0.00118   0.03257
 97602.217   0.03726   0.00115   0.03132
102883.827   0.03562   0.00112   0.03012
108451.245   0.03405   0.00109   0.02897
114319.936   0.03256   0.00107   0.02786
120506.203   0.03113   0.00104   0.02680
127027.231   0.02976   0.00101   0.02577
133901.136   0.02845   0.00099   0.02479
141147.013   0.02720   0.00096   0.02384
148784.990   0.02601   0.00094   0.02293
156836.286   0.02487   0.00091   0.02205
165323.267   0.02377   0.00089   0.02121
174269.510   0.02273   0.00087   0.02040
183699.866   0.02173   0.00085   0.01962
193640.533   0.02078   0.00083   0.01887
204119.125   0.01986   0.00081   0.01815
215164.753   0.01899   0.00079   0.01746
226808.099   0.01816   0.00077   0.01680
239081.509   0.01736   0.00075   0.01616
252019.078   0.01660   0.00073   0.01554
265656.745   0.01587   0.00071   0.01495
280032.397   0.01517   0.00069   0.01438
295185.967   0.01450   0.00067   0.01383
311159.551   0.01387   0.00066   0.01331
327997.525   0.01326   0.00064   0.01280
345746.662   0.01268   0.00063   0.01231
364456.270   0.01212   0.00061   0.01184
384178.322   0.01159   0.00059   0.01139
404967.607   0.01108   0.00058   0.01096
426881.875   0.01059   0.00057   0.01054
449982.003   0.01013   0.00055   0.01014
474332.164   0.00968   0.00054   0.00976
500000.000   0.00926   0.00052   0.00939
