# Smoothed digitization from Lin and Poppe (2025), JGR Space Physics, Fig. 2b.
# Original cited EI source: Bartlett and Stelbovics (2002, 2004).
energy(eV) ionization(x1e-16)
      8.0901       0.1889
       8.327      0.26459
      8.5708      0.36182
      8.8217      0.48344
      9.0799      0.63172
      9.3458      0.80801
      9.6194       1.0125
       9.901       1.2441
      10.191       1.5002
      10.489        1.777
      10.796       2.0693
      11.112       2.3708
      11.438        2.675
      11.773       2.9749
      12.117        3.264
      12.472       3.5364
      12.837       3.7875
      13.213       4.0138
        13.6       4.2131
      13.998       4.3852
      14.408       4.5292
      14.829       4.6472
      15.263       4.7423
       15.71        4.818
       16.17       4.8776
      16.644       4.9246
      17.131       4.9621
      17.632       4.9926
      18.149       5.0184
       18.68       5.0409
      19.227       5.0611
       19.79       5.0791
      20.369       5.0958
      20.965       5.1109
      21.579       5.1241
      22.211        5.135
      22.861       5.1431
       23.53       5.1477
      24.219       5.1484
      24.928       5.1448
      25.658       5.1356
      26.409       5.1227
      27.182       5.1062
      27.978       5.0864
      28.797       5.0633
       29.64       5.0372
      30.508       5.0085
      31.401       4.9772
      32.321       4.9436
      33.267       4.9077
      34.241       4.8696
      35.243       4.8293
      36.275       4.7869
      37.337       4.7425
       38.43       4.6961
      39.555       4.6477
      40.713       4.5975
      41.905       4.5458
      43.132       4.4925
      44.394        4.438
      45.694       4.3823
      47.032       4.3257
      48.409       4.2684
      49.826       4.2108
      51.284       4.1529
      52.786       4.0951
      54.331       4.0374
      55.922         3.98
      57.559       3.9229
      59.244       3.8661
      60.978       3.8096
      62.764       3.7534
      64.601       3.6976
      66.492       3.6422
      68.439       3.5872
      70.442       3.5327
      72.505       3.4788
      74.627       3.4254
      76.812       3.3725
      79.061       3.3204
      81.375        3.269
      83.758       3.2182
       86.21       3.1681
      88.734       3.1187
      91.331       3.0699
      94.005       3.0219
      96.757       2.9745
       99.59       2.9277
      102.51       2.8815
      105.51       2.8357
       108.6       2.7904
      111.77       2.7456
      115.05       2.7013
      118.41       2.6575
      121.88       2.6142
      125.45       2.5713
      129.12       2.5289
       132.9        2.487
      136.79       2.4456
       140.8       2.4047
      144.92       2.3645
      149.16       2.3247
      153.53       2.2855
      158.02       2.2468
      162.65       2.2087
      167.41       2.1712
      172.31       2.1341
      177.36       2.0976
      182.55       2.0615
      187.89        2.026
      193.39        1.991
      199.06       1.9564
      204.88       1.9224
      210.88       1.8889
      217.06       1.8558
      223.41       1.8233
      229.95       1.7912
      236.68       1.7596
      243.61       1.7286
      250.74       1.6981
      258.08       1.6681
      265.64       1.6386
      273.42       1.6097
      281.42       1.5812
      289.66       1.5533
      298.14       1.5258
      306.87       1.4987
      315.85       1.4721
       325.1        1.446
      334.62       1.4203
      344.41       1.3949
      354.49         1.37
      364.87       1.3455
      375.55       1.3213
      386.55       1.2975
      397.87       1.2741
      409.51        1.251
       421.5       1.2282
      433.84       1.2058
      446.54       1.1836
      459.62       1.1618
      473.07       1.1402
      486.92       1.1189
      501.18        1.098
      515.85       1.0773
      530.95       1.0568
      546.49       1.0366
      562.49       1.0167
      578.96       0.9971
      595.91      0.97773
      613.36      0.95858
      631.31      0.93969
      649.79      0.92107
      668.82      0.90272
       688.4      0.88461
      708.55      0.86677
      729.29       0.8492
      750.64       0.8319
      772.62      0.81488
      795.24      0.79812
      818.52      0.78165
      842.48      0.76545
      867.15      0.74956
      892.53      0.73393
      918.66      0.71857
      945.56      0.70352
      973.24      0.68875
      1001.7      0.67422
      1031.1      0.65993
      1061.2      0.64583
      1092.3      0.63191
      1124.3      0.61817
      1157.2      0.60463
      1191.1      0.59133
        1226      0.57829
      1261.8      0.56554
      1298.8      0.55308
      1336.8      0.54093
      1375.9      0.52911
      1416.2      0.51758
      1457.7      0.50637
      1500.4      0.49544
      1544.3      0.48482
      1589.5      0.47446
        1636      0.46436
      1683.9       0.4545
      1733.2      0.44483
        1784      0.43535
      1836.2      0.42601
      1889.9      0.41674
      1945.3      0.40755
      2002.2      0.39842
      2060.8      0.38937
      2121.2      0.38043
      2183.3       0.3716
      2247.2      0.36288
        2313       0.3543
      2380.7      0.34587
      2450.4       0.3376
      2522.1      0.32947
        2596      0.32154
        2672      0.31379
      2750.2      0.30625
      2830.7      0.29889
      2913.6      0.29174
      2998.9      0.28481
      3086.7      0.27807
        3177      0.27151
        3270      0.26512
      3365.8      0.25888
      3464.3      0.25281
      3565.7      0.24692
      3670.1      0.24121
      3777.5       0.2357
      3888.1      0.23038
        4002      0.22524
      4119.1      0.22028
      4239.7      0.21549
      4363.8      0.21086
      4491.6      0.20638
      4623.1      0.20203
      4758.4      0.19779
      4897.7      0.19365
      5041.1      0.18958
      5188.7      0.18558
      5340.6      0.18161
        5497      0.17766
      5657.9      0.17372
      5823.5      0.16979
        5994      0.16586
      6169.5      0.16193
      6350.1        0.158
        6536      0.15406
      6727.3      0.15011
      6924.3      0.14615
        7127      0.14218
      7335.7       0.1382
      7550.4      0.13421
      7771.5       0.1302
        7999      0.12619
