# Smoothed digitization from Lin and Poppe (2025), JGR Space Physics, Fig. 2b.
# Original cited EI source: Bartlett and Stelbovics (2002, 2004).
energy(eV) ionization(x1e-16)
      8.5416      0.14056
      8.8002      0.18717
      9.0665      0.24507
       9.341      0.31574
      9.6237      0.40046
      9.9151      0.50031
      10.215      0.61605
      10.524      0.74806
      10.843      0.89628
      11.171       1.0602
      11.509       1.2388
      11.858       1.4301
      12.217       1.6332
      12.586       1.8461
      12.967        2.066
       13.36         2.29
      13.764       2.5154
      14.181       2.7402
       14.61       2.9625
      15.053       3.1809
      15.508       3.3947
      15.978       3.6036
      16.461       3.8074
       16.96       4.0064
      17.473        4.201
      18.002       4.3918
      18.547       4.5795
      19.108       4.7647
      19.687       4.9476
      20.282       5.1285
      20.896        5.307
      21.529       5.4824
      22.181       5.6578
      22.852       5.8286
      23.544       5.9927
      24.256       6.1488
      24.991       6.2971
      25.747       6.4378
      26.527       6.5703
       27.33       6.6941
      28.157       6.8093
      29.009       6.9154
      29.887       7.0126
      30.792       7.1009
      31.724       7.1807
      32.684       7.2519
      33.674       7.3147
      34.693        7.369
      35.743       7.4148
      36.825       7.4524
       37.94       7.4819
      39.088       7.5034
      40.271       7.5172
       41.49       7.5231
      42.746        7.521
       44.04       7.5115
      45.373       7.4952
      46.747       7.4723
      48.162        7.443
       49.62       7.4073
      51.122       7.3656
      52.669       7.3181
      54.263       7.2657
      55.906       7.2082
      57.598       7.1461
      59.342       7.0795
      61.138       7.0086
      62.989       6.9338
      64.895       6.8556
       66.86       6.7744
      68.883       6.6903
      70.969       6.6036
      73.117       6.5146
       75.33       6.4234
       77.61       6.3306
       79.96       6.2367
       82.38       6.1422
      84.874        6.047
      87.443       5.9512
       90.09       5.8549
      92.817       5.7583
      95.626       5.6614
      98.521       5.5645
       101.5       5.4677
      104.58       5.3711
      107.74       5.2747
         111       5.1787
      114.36       5.0831
      117.82       4.9882
      121.39       4.8939
      125.07       4.8004
      128.85       4.7077
      132.75       4.6159
      136.77       4.5251
      140.91       4.4352
      145.17       4.3464
      149.57       4.2587
       154.1        4.172
      158.76       4.0863
      163.57       4.0015
      168.52       3.9179
      173.62       3.8351
      178.87       3.7534
      184.29       3.6725
      189.87       3.5925
      195.62       3.5133
      201.54       3.4351
      207.64       3.3577
      213.92       3.2812
       220.4       3.2056
      227.07        3.131
      233.94       3.0574
      241.02        2.985
      248.32       2.9138
      255.84       2.8439
      263.58       2.7755
      271.56       2.7087
      279.78       2.6434
      288.25       2.5797
      296.97       2.5178
      305.96       2.4575
      315.22        2.399
      324.77       2.3422
       334.6       2.2872
      344.73       2.2338
      355.16       2.1822
      365.91       2.1322
      376.99       2.0837
       388.4       2.0368
      400.16       1.9913
      412.27       1.9471
      424.75       1.9043
       437.6       1.8626
      450.85       1.8221
       464.5       1.7827
      478.56       1.7442
      493.04       1.7067
      507.97       1.6699
      523.34        1.634
      539.19       1.5987
      555.51       1.5641
      572.32         1.53
      589.65       1.4965
       607.5       1.4635
      625.88       1.4309
      644.83       1.3988
      664.35       1.3671
      684.46       1.3359
      705.18       1.3051
      726.52       1.2748
      748.52        1.245
      771.17       1.2157
      794.52       1.1869
      818.57       1.1586
      843.34        1.131
      868.87       1.1039
      895.17       1.0775
      922.27       1.0516
      950.19       1.0264
      978.95       1.0017
      1008.6      0.97761
      1039.1      0.95405
      1070.6      0.93102
        1103      0.90854
      1136.4      0.88658
      1170.8      0.86514
      1206.2      0.84419
      1242.7      0.82374
      1280.3      0.80377
      1319.1      0.78424
        1359       0.7652
      1400.1       0.7466
      1442.5      0.72842
      1486.2      0.71069
      1531.2      0.69338
      1577.5      0.67645
      1625.3      0.65993
      1674.5      0.64377
      1725.2      0.62798
      1777.4      0.61255
      1831.2      0.59746
      1886.6      0.58271
      1943.7      0.56829
      2002.6       0.5542
      2063.2      0.54044
      2125.6      0.52698
        2190      0.51384
      2256.3      0.50099
      2324.6      0.48845
      2394.9       0.4762
      2467.4      0.46426
      2542.1       0.4526
      2619.1      0.44123
      2698.3      0.43015
        2780      0.41933
      2864.2      0.40877
      2950.9      0.39847
      3040.2      0.38843
      3132.2      0.37863
        3227      0.36907
      3324.7      0.35974
      3425.4      0.35064
        3529      0.34176
      3635.9       0.3331
      3745.9      0.32466
      3859.3      0.31642
      3976.1      0.30838
      4096.5      0.30054
      4220.5      0.29289
      4348.2      0.28542
      4479.9      0.27815
      4615.5      0.27106
      4755.2      0.26415
      4899.1      0.25742
      5047.4      0.25085
      5200.2      0.24446
      5357.6      0.23824
      5519.8      0.23216
      5686.9      0.22624
        5859      0.22046
      6036.4      0.21483
      6219.1      0.20933
      6407.3      0.20396
      6601.3      0.19872
      6801.1       0.1936
        7007      0.18859
      7219.1       0.1837
      7437.6      0.17891
      7662.7      0.17422
      7894.7      0.16964
      8133.7      0.16516
      8379.9      0.16079
      8633.5      0.15651
      8894.9      0.15233
      9164.1      0.14823
      9441.5      0.14423
      9727.3      0.14031
       10022      0.13648
       10325      0.13274
       10638      0.12907
